d / dilky	  d / nm	signal
  16.9999	 373.034	    9
  17.0003	 373.053	    9
  17.0007	 373.073	    9
  17.0010	 373.093	    9
  17.0014	 373.112	    9
  17.0018	 373.132	    9
  17.0021	 373.151	    9
  17.0025	 373.171	    9
  17.0029	 373.190	    9
  17.0033	 373.210	    9
  17.0036	 373.230	    9
  17.0040	 373.249	    9
  17.0044	 373.269	    9
  17.0047	 373.288	    9
  17.0051	 373.308	    9
  17.0055	 373.327	    9
  17.0058	 373.347	    9
  17.0062	 373.367	    9
  17.0066	 373.386	    9
  17.0069	 373.406	    8
  17.0073	 373.425	    9
  17.0077	 373.445	    8
  17.0081	 373.464	    9
  17.0084	 373.484	    9
  17.0088	 373.503	    9
  17.0092	 373.523	    9
  17.0095	 373.543	    9
  17.0099	 373.562	    8
  17.0103	 373.582	    9
  17.0106	 373.601	    8
  17.0110	 373.621	    9
  17.0114	 373.640	    9
  17.0118	 373.660	    9
  17.0121	 373.680	    9
  17.0125	 373.699	    9
  17.0129	 373.719	    9
  17.0132	 373.738	    9
  17.0136	 373.758	    9
  17.0140	 373.777	    9
  17.0143	 373.797	    8
  17.0147	 373.817	    9
  17.0151	 373.836	    8
  17.0155	 373.856	    9
  17.0158	 373.875	    8
  17.0162	 373.895	    9
  17.0166	 373.914	    8
  17.0169	 373.934	    9
  17.0173	 373.953	    8
  17.0177	 373.973	    9
  17.0180	 373.993	    8
  17.0184	 374.012	    9
  17.0188	 374.032	    8
  17.0192	 374.051	    8
  17.0195	 374.071	    8
  17.0199	 374.090	    8
  17.0203	 374.110	    8
  17.0206	 374.130	    8
  17.0210	 374.149	    8
  17.0214	 374.169	    8
  17.0217	 374.188	    8
  17.0221	 374.208	    8
  17.0225	 374.227	    8
  17.0229	 374.247	    8
  17.0232	 374.267	    8
  17.0236	 374.286	    8
  17.0240	 374.306	    8
  17.0243	 374.325	    8
  17.0247	 374.345	    8
  17.0251	 374.364	    8
  17.0254	 374.384	    8
  17.0258	 374.404	    8
  17.0262	 374.423	    8
  17.0266	 374.443	    8
  17.0269	 374.462	    8
  17.0273	 374.482	    8
  17.0277	 374.501	    8
  17.0280	 374.521	    8
  17.0284	 374.540	    8
  17.0288	 374.560	    8
  17.0291	 374.580	    8
  17.0295	 374.599	    8
  17.0299	 374.619	    8
  17.0302	 374.638	    8
  17.0306	 374.658	    8
  17.0310	 374.677	    8
  17.0314	 374.697	    8
  17.0317	 374.717	    8
  17.0321	 374.736	    8
  17.0325	 374.756	    8
  17.0328	 374.775	    8
  17.0332	 374.795	    8
  17.0336	 374.814	    8
  17.0339	 374.834	    8
  17.0343	 374.854	    8
  17.0347	 374.873	    8
  17.0351	 374.893	    8
  17.0354	 374.912	    8
  17.0358	 374.932	    8
  17.0362	 374.951	    8
  17.0365	 374.971	    8
  17.0369	 374.990	    8
  17.0373	 375.010	    8
  17.0376	 375.030	    8
  17.0380	 375.049	    8
  17.0384	 375.069	    8
  17.0388	 375.088	    8
  17.0391	 375.108	    8
  17.0395	 375.127	    8
  17.0399	 375.147	    8
  17.0402	 375.167	    8
  17.0406	 375.186	    8
  17.0410	 375.206	    8
  17.0413	 375.225	    8
  17.0417	 375.245	    8
  17.0421	 375.264	    8
  17.0425	 375.284	    8
  17.0428	 375.304	    8
  17.0432	 375.323	    8
  17.0436	 375.343	    8
  17.0439	 375.362	    8
  17.0443	 375.382	    8
  17.0447	 375.401	    8
  17.0450	 375.421	    9
  17.0454	 375.441	    9
  17.0458	 375.460	    9
  17.0462	 375.480	    9
  17.0465	 375.499	   10
  17.0469	 375.519	   10
  17.0473	 375.538	   11
  17.0476	 375.558	   11
  17.0480	 375.577	   12
  17.0484	 375.597	   12
  17.0487	 375.617	   12
  17.0491	 375.636	   12
  17.0495	 375.656	   12
  17.0499	 375.675	   11
  17.0502	 375.695	   11
  17.0506	 375.714	   10
  17.0510	 375.734	   10
  17.0513	 375.754	    9
  17.0517	 375.773	    9
  17.0521	 375.793	    8
  17.0524	 375.812	    8
  17.0528	 375.832	    8
  17.0532	 375.851	    8
  17.0535	 375.871	    8
  17.0539	 375.891	    8
  17.0543	 375.910	    8
  17.0547	 375.930	    9
  17.0550	 375.949	    8
  17.0554	 375.969	    9
  17.0558	 375.988	    8
  17.0561	 376.008	    8
  17.0565	 376.027	    8
  17.0569	 376.047	    8
  17.0572	 376.067	    8
  17.0576	 376.086	    8
  17.0580	 376.106	    8
  17.0584	 376.125	    8
  17.0587	 376.145	    8
  17.0591	 376.164	    8
  17.0595	 376.184	    8
  17.0598	 376.204	    8
  17.0602	 376.223	    8
  17.0606	 376.243	    8
  17.0609	 376.262	    7
  17.0613	 376.282	    8
  17.0617	 376.301	    8
  17.0621	 376.321	    8
  17.0624	 376.341	    8
  17.0628	 376.360	    8
  17.0632	 376.380	    8
  17.0635	 376.399	    8
  17.0639	 376.419	    8
  17.0643	 376.438	    8
  17.0646	 376.458	    8
  17.0650	 376.478	    8
  17.0654	 376.497	    8
  17.0658	 376.517	    8
  17.0661	 376.536	    8
  17.0665	 376.556	    8
  17.0669	 376.575	    8
  17.0672	 376.595	    8
  17.0676	 376.614	    7
  17.0680	 376.634	    8
  17.0683	 376.654	    7
  17.0687	 376.673	    8
  17.0691	 376.693	    8
  17.0695	 376.712	    8
  17.0698	 376.732	    7
  17.0702	 376.751	    8
  17.0706	 376.771	    7
  17.0709	 376.791	    8
  17.0713	 376.810	    7
  17.0717	 376.830	    8
  17.0720	 376.849	    7
  17.0724	 376.869	    8
  17.0728	 376.888	    7
  17.0732	 376.908	    8
  17.0735	 376.928	    7
  17.0739	 376.947	    8
  17.0743	 376.967	    7
  17.0746	 376.986	    8
  17.0750	 377.006	    7
  17.0754	 377.025	    8
  17.0757	 377.045	    7
  17.0761	 377.064	    8
  17.0765	 377.084	    7
  17.0768	 377.104	    8
  17.0772	 377.123	    7
  17.0776	 377.143	    8
  17.0780	 377.162	    7
  17.0783	 377.182	    8
  17.0787	 377.201	    7
  17.0791	 377.221	    8
  17.0794	 377.241	    8
  17.0798	 377.260	    8
  17.0802	 377.280	    8
  17.0805	 377.299	    8
  17.0809	 377.319	    8
  17.0813	 377.338	    8
  17.0817	 377.358	    8
  17.0820	 377.378	    8
  17.0824	 377.397	    8
  17.0828	 377.417	    8
  17.0831	 377.436	    8
  17.0835	 377.456	    8
  17.0839	 377.475	    8
  17.0842	 377.495	    8
  17.0846	 377.515	    8
  17.0850	 377.534	    9
  17.0854	 377.554	    9
  17.0857	 377.573	    9
  17.0861	 377.593	    9
  17.0865	 377.612	    9
  17.0868	 377.632	    9
  17.0872	 377.651	    9
  17.0876	 377.671	    9
  17.0879	 377.691	    9
  17.0883	 377.710	    8
  17.0887	 377.730	    8
  17.0891	 377.749	    8
  17.0894	 377.769	    8
  17.0898	 377.788	    8
  17.0902	 377.808	    8
  17.0905	 377.828	    8
  17.0909	 377.847	    8
  17.0913	 377.867	    8
  17.0916	 377.886	    8
  17.0920	 377.906	    8
  17.0924	 377.925	    8
  17.0928	 377.945	    8
  17.0931	 377.965	    8
  17.0935	 377.984	    7
  17.0939	 378.004	    8
  17.0942	 378.023	    7
  17.0946	 378.043	    8
  17.0950	 378.062	    7
  17.0953	 378.082	    8
  17.0957	 378.101	    7
  17.0961	 378.121	    8
  17.0965	 378.141	    7
  17.0968	 378.160	    8
  17.0972	 378.180	    7
  17.0976	 378.199	    8
  17.0979	 378.219	    7
  17.0983	 378.238	    8
  17.0987	 378.258	    7
  17.0990	 378.278	    7
  17.0994	 378.297	    7
  17.0998	 378.317	    8
  17.1001	 378.336	    7
  17.1005	 378.356	    8
  17.1009	 378.375	    7
  17.1013	 378.395	    8
  17.1016	 378.415	    7
  17.1020	 378.434	    8
  17.1024	 378.454	    7
  17.1027	 378.473	    7
  17.1031	 378.493	    7
  17.1035	 378.512	    7
  17.1038	 378.532	    7
  17.1042	 378.552	    7
  17.1046	 378.571	    7
  17.1050	 378.591	    8
  17.1053	 378.610	    7
  17.1057	 378.630	    8
  17.1061	 378.649	    7
  17.1064	 378.669	    8
  17.1068	 378.688	    7
  17.1072	 378.708	    8
  17.1075	 378.728	    7
  17.1079	 378.747	    8
  17.1083	 378.767	    7
  17.1087	 378.786	    8
  17.1090	 378.806	    7
  17.1094	 378.825	    8
  17.1098	 378.845	    7
  17.1101	 378.865	    8
  17.1105	 378.884	    8
  17.1109	 378.904	    8
  17.1112	 378.923	    8
  17.1116	 378.943	    8
  17.1120	 378.962	    7
  17.1124	 378.982	    8
  17.1127	 379.002	    7
  17.1131	 379.021	    8
  17.1135	 379.041	    8
  17.1138	 379.060	    8
  17.1142	 379.080	    8
  17.1146	 379.099	    8
  17.1149	 379.119	    8
  17.1153	 379.138	    8
  17.1157	 379.158	    8
  17.1161	 379.178	    8
  17.1164	 379.197	    8
  17.1168	 379.217	    8
  17.1172	 379.236	    8
  17.1175	 379.256	    8
  17.1179	 379.275	    8
  17.1183	 379.295	    9
  17.1186	 379.315	    9
  17.1190	 379.334	    9
  17.1194	 379.354	    9
  17.1198	 379.373	   10
  17.1201	 379.393	   10
  17.1205	 379.412	   10
  17.1209	 379.432	   11
  17.1212	 379.452	   12
  17.1216	 379.471	   12
  17.1220	 379.491	   12
  17.1223	 379.510	   13
  17.1227	 379.530	   14
  17.1231	 379.549	   14
  17.1234	 379.569	   15
  17.1238	 379.588	   15
  17.1242	 379.608	   16
  17.1246	 379.628	   16
  17.1249	 379.647	   16
  17.1253	 379.667	   16
  17.1257	 379.686	   15
  17.1260	 379.706	   15
  17.1264	 379.725	   15
  17.1268	 379.745	   14
  17.1271	 379.765	   13
  17.1275	 379.784	   13
  17.1279	 379.804	   12
  17.1283	 379.823	   12
  17.1286	 379.843	   11
  17.1290	 379.862	   11
  17.1294	 379.882	   11
  17.1297	 379.902	   10
  17.1301	 379.921	   10
  17.1305	 379.941	    9
  17.1308	 379.960	    9
  17.1312	 379.980	    9
  17.1316	 379.999	    9
  17.1320	 380.019	    9
  17.1323	 380.039	    9
  17.1327	 380.058	    8
  17.1331	 380.078	    8
  17.1334	 380.097	    8
  17.1338	 380.117	    8
  17.1342	 380.136	    8
  17.1345	 380.156	    8
  17.1349	 380.175	    8
  17.1353	 380.195	    8
  17.1357	 380.215	    8
  17.1360	 380.234	    8
  17.1364	 380.254	    8
  17.1368	 380.273	    8
  17.1371	 380.293	    8
  17.1375	 380.312	    8
  17.1379	 380.332	    8
  17.1382	 380.352	    8
  17.1386	 380.371	    8
  17.1390	 380.391	    8
  17.1394	 380.410	    8
  17.1397	 380.430	    8
  17.1401	 380.449	    8
  17.1405	 380.469	    8
  17.1408	 380.489	    8
  17.1412	 380.508	    8
  17.1416	 380.528	    8
  17.1419	 380.547	    8
  17.1423	 380.567	    8
  17.1427	 380.586	    8
  17.1431	 380.606	    8
  17.1434	 380.625	    8
  17.1438	 380.645	    8
  17.1442	 380.665	    8
  17.1445	 380.684	    8
  17.1449	 380.704	    9
  17.1453	 380.723	    9
  17.1456	 380.743	    9
  17.1460	 380.762	    9
  17.1464	 380.782	    9
  17.1467	 380.802	    9
  17.1471	 380.821	    9
  17.1475	 380.841	    9
  17.1479	 380.860	    9
  17.1482	 380.880	    9
  17.1486	 380.899	    9
  17.1490	 380.919	    9
  17.1493	 380.939	    9
  17.1497	 380.958	    8
  17.1501	 380.978	    8
  17.1504	 380.997	    8
  17.1508	 381.017	    8
  17.1512	 381.036	    8
  17.1516	 381.056	    8
  17.1519	 381.076	    8
  17.1523	 381.095	    8
  17.1527	 381.115	    8
  17.1530	 381.134	    8
  17.1534	 381.154	    8
  17.1538	 381.173	    8
  17.1541	 381.193	    8
  17.1545	 381.212	    8
  17.1549	 381.232	    8
  17.1553	 381.252	    8
  17.1556	 381.271	    8
  17.1560	 381.291	    8
  17.1564	 381.310	    8
  17.1567	 381.330	    8
  17.1571	 381.349	    8
  17.1575	 381.369	    8
  17.1578	 381.389	    8
  17.1582	 381.408	    8
  17.1586	 381.428	    8
  17.1590	 381.447	    8
  17.1593	 381.467	    8
  17.1597	 381.486	    8
  17.1601	 381.506	    8
  17.1604	 381.526	    8
  17.1608	 381.545	    8
  17.1612	 381.565	    8
  17.1615	 381.584	    8
  17.1619	 381.604	    8
  17.1623	 381.623	    8
  17.1627	 381.643	    8
  17.1630	 381.662	    8
  17.1634	 381.682	    8
  17.1638	 381.702	    7
  17.1641	 381.721	    8
  17.1645	 381.741	    7
  17.1649	 381.760	    8
  17.1652	 381.780	    7
  17.1656	 381.799	    8
  17.1660	 381.819	    7
  17.1664	 381.839	    8
  17.1667	 381.858	    7
  17.1671	 381.878	    8
  17.1675	 381.897	    7
  17.1678	 381.917	    8
  17.1682	 381.936	    7
  17.1686	 381.956	    8
  17.1689	 381.976	    7
  17.1693	 381.995	    8
  17.1697	 382.015	    7
  17.1700	 382.034	    8
  17.1704	 382.054	    7
  17.1708	 382.073	    7
  17.1712	 382.093	    7
  17.1715	 382.113	    8
  17.1719	 382.132	    7
  17.1723	 382.152	    8
  17.1726	 382.171	    7
  17.1730	 382.191	    8
  17.1734	 382.210	    7
  17.1737	 382.230	    8
  17.1741	 382.249	    7
  17.1745	 382.269	    8
  17.1749	 382.289	    7
  17.1752	 382.308	    8
  17.1756	 382.328	    8
  17.1760	 382.347	    8
  17.1763	 382.367	    8
  17.1767	 382.386	    8
  17.1771	 382.406	    8
  17.1774	 382.426	    8
  17.1778	 382.445	    8
  17.1782	 382.465	    8
  17.1786	 382.484	    8
  17.1789	 382.504	    9
  17.1793	 382.523	    9
  17.1797	 382.543	    9
  17.1800	 382.563	    9
  17.1804	 382.582	   10
  17.1808	 382.602	   10
  17.1811	 382.621	   11
  17.1815	 382.641	   11
  17.1819	 382.660	   12
  17.1823	 382.680	   12
  17.1826	 382.699	   12
  17.1830	 382.719	   12
  17.1834	 382.739	   12
  17.1837	 382.758	   12
  17.1841	 382.778	   12
  17.1845	 382.797	   11
  17.1848	 382.817	   11
  17.1852	 382.836	   10
  17.1856	 382.856	   10
  17.1860	 382.876	    9
  17.1863	 382.895	    9
  17.1867	 382.915	    8
  17.1871	 382.934	    8
  17.1874	 382.954	    8
  17.1878	 382.973	    8
  17.1882	 382.993	    8
  17.1885	 383.013	    8
  17.1889	 383.032	    7
  17.1893	 383.052	    8
  17.1896	 383.071	    7
  17.1900	 383.091	    8
  17.1904	 383.110	    7
  17.1908	 383.130	    8
  17.1911	 383.150	    7
  17.1915	 383.169	    8
  17.1919	 383.189	    7
  17.1922	 383.208	    7
  17.1926	 383.228	    7
  17.1930	 383.247	    7
  17.1933	 383.267	    7
  17.1937	 383.286	    7
  17.1941	 383.306	    7
  17.1945	 383.326	    7
  17.1948	 383.345	    7
  17.1952	 383.365	    7
  17.1956	 383.384	    7
  17.1959	 383.404	    7
  17.1963	 383.423	    7
  17.1967	 383.443	    7
  17.1970	 383.463	    7
  17.1974	 383.482	    7
  17.1978	 383.502	    7
  17.1982	 383.521	    8
  17.1985	 383.541	    7
  17.1989	 383.560	    8
  17.1993	 383.580	    7
  17.1996	 383.600	    7
  17.2000	 383.619	    7
  17.2004	 383.639	    7
  17.2007	 383.658	    7
  17.2011	 383.678	    7
  17.2015	 383.697	    7
  17.2019	 383.717	    7
  17.2022	 383.736	    7
  17.2026	 383.756	    7
  17.2030	 383.776	    7
  17.2033	 383.795	    7
  17.2037	 383.815	    7
  17.2041	 383.834	    7
  17.2044	 383.854	    7
  17.2048	 383.873	    7
  17.2052	 383.893	    7
  17.2056	 383.913	    7
  17.2059	 383.932	    7
  17.2063	 383.952	    7
  17.2067	 383.971	    7
  17.2070	 383.991	    7
  17.2074	 384.010	    7
  17.2078	 384.030	    7
  17.2081	 384.050	    7
  17.2085	 384.069	    7
  17.2089	 384.089	    7
  17.2093	 384.108	    7
  17.2096	 384.128	    7
  17.2100	 384.147	    7
  17.2104	 384.167	    7
  17.2107	 384.186	    7
  17.2111	 384.206	    7
  17.2115	 384.226	    7
  17.2118	 384.245	    7
  17.2122	 384.265	    7
  17.2126	 384.284	    7
  17.2129	 384.304	    7
  17.2133	 384.323	    7
  17.2137	 384.343	    7
  17.2141	 384.363	    7
  17.2144	 384.382	    7
  17.2148	 384.402	    7
  17.2152	 384.421	    7
  17.2155	 384.441	    7
  17.2159	 384.460	    7
  17.2163	 384.480	    7
  17.2166	 384.500	    7
  17.2170	 384.519	    7
  17.2174	 384.539	    7
  17.2178	 384.558	    7
  17.2181	 384.578	    7
  17.2185	 384.597	    7
  17.2189	 384.617	    7
  17.2192	 384.637	    7
  17.2196	 384.656	    7
  17.2200	 384.676	    7
  17.2203	 384.695	    7
  17.2207	 384.715	    7
  17.2211	 384.734	    7
  17.2215	 384.754	    7
  17.2218	 384.773	    7
  17.2222	 384.793	    7
  17.2226	 384.813	    8
  17.2229	 384.832	    7
  17.2233	 384.852	    8
  17.2237	 384.871	    7
  17.2240	 384.891	    8
  17.2244	 384.910	    7
  17.2248	 384.930	    8
  17.2252	 384.950	    7
  17.2255	 384.969	    8
  17.2259	 384.989	    7
  17.2263	 385.008	    7
  17.2266	 385.028	    7
  17.2270	 385.047	    7
  17.2274	 385.067	    7
  17.2277	 385.087	    7
  17.2281	 385.106	    7
  17.2285	 385.126	    7
  17.2289	 385.145	    7
  17.2292	 385.165	    7
  17.2296	 385.184	    7
  17.2300	 385.204	    7
  17.2303	 385.223	    7
  17.2307	 385.243	    7
  17.2311	 385.263	    7
  17.2314	 385.282	    7
  17.2318	 385.302	    7
  17.2322	 385.321	    7
  17.2326	 385.341	    7
  17.2329	 385.360	    7
  17.2333	 385.380	    7
  17.2337	 385.400	    7
  17.2340	 385.419	    7
  17.2344	 385.439	    7
  17.2348	 385.458	    7
  17.2351	 385.478	    8
  17.2355	 385.497	    7
  17.2359	 385.517	    7
  17.2362	 385.537	    7
  17.2366	 385.556	    7
  17.2370	 385.576	    7
  17.2374	 385.595	    8
  17.2377	 385.615	    7
  17.2381	 385.634	    8
  17.2385	 385.654	    7
  17.2388	 385.674	    8
  17.2392	 385.693	    7
  17.2396	 385.713	    8
  17.2399	 385.732	    7
  17.2403	 385.752	    7
  17.2407	 385.771	    7
  17.2411	 385.791	    8
  17.2414	 385.810	    7
  17.2418	 385.830	    8
  17.2422	 385.850	    7
  17.2425	 385.869	    8
  17.2429	 385.889	    7
  17.2433	 385.908	    8
  17.2436	 385.928	    7
  17.2440	 385.947	    8
  17.2444	 385.967	    7
  17.2448	 385.987	    8
  17.2451	 386.006	    7
  17.2455	 386.026	    8
  17.2459	 386.045	    7
  17.2462	 386.065	    8
  17.2466	 386.084	    8
  17.2470	 386.104	    8
  17.2473	 386.124	    8
  17.2477	 386.143	    8
  17.2481	 386.163	    8
  17.2485	 386.182	    8
  17.2488	 386.202	    7
  17.2492	 386.221	    8
  17.2496	 386.241	    8
  17.2499	 386.260	    8
  17.2503	 386.280	    8
  17.2507	 386.300	    8
  17.2510	 386.319	    8
  17.2514	 386.339	    8
  17.2518	 386.358	    8
  17.2522	 386.378	    8
  17.2525	 386.397	    8
  17.2529	 386.417	    8
  17.2533	 386.437	    8
  17.2536	 386.456	    8
  17.2540	 386.476	    8
  17.2544	 386.495	    9
  17.2547	 386.515	    9
  17.2551	 386.534	    9
  17.2555	 386.554	    9
  17.2559	 386.574	   10
  17.2562	 386.593	   10
  17.2566	 386.613	   10
  17.2570	 386.632	   10
  17.2573	 386.652	   11
  17.2577	 386.671	   11
  17.2581	 386.691	   11
  17.2584	 386.711	   11
  17.2588	 386.730	   11
  17.2592	 386.750	   11
  17.2595	 386.769	   11
  17.2599	 386.789	   10
  17.2603	 386.808	   10
  17.2607	 386.828	    9
  17.2610	 386.847	    9
  17.2614	 386.867	    9
  17.2618	 386.887	    9
  17.2621	 386.906	    8
  17.2625	 386.926	    8
  17.2629	 386.945	    8
  17.2632	 386.965	    8
  17.2636	 386.984	    8
  17.2640	 387.004	    8
  17.2644	 387.024	    8
  17.2647	 387.043	    8
  17.2651	 387.063	    8
  17.2655	 387.082	    8
  17.2658	 387.102	    8
  17.2662	 387.121	    8
  17.2666	 387.141	    7
  17.2669	 387.161	    8
  17.2673	 387.180	    7
  17.2677	 387.200	    8
  17.2681	 387.219	    7
  17.2684	 387.239	    8
  17.2688	 387.258	    7
  17.2692	 387.278	    8
  17.2695	 387.297	    7
  17.2699	 387.317	    8
  17.2703	 387.337	    7
  17.2706	 387.356	    8
  17.2710	 387.376	    7
  17.2714	 387.395	    8
  17.2718	 387.415	    7
  17.2721	 387.434	    8
  17.2725	 387.454	    7
  17.2729	 387.474	    8
  17.2732	 387.493	    7
  17.2736	 387.513	    8
  17.2740	 387.532	    7
  17.2743	 387.552	    8
  17.2747	 387.571	    7
  17.2751	 387.591	    8
  17.2755	 387.611	    7
  17.2758	 387.630	    8
  17.2762	 387.650	    7
  17.2766	 387.669	    8
  17.2769	 387.689	    7
  17.2773	 387.708	    8
  17.2777	 387.728	    7
  17.2780	 387.748	    8
  17.2784	 387.767	    7
  17.2788	 387.787	    8
  17.2792	 387.806	    7
  17.2795	 387.826	    8
  17.2799	 387.845	    7
  17.2803	 387.865	    8
  17.2806	 387.884	    7
  17.2810	 387.904	    8
  17.2814	 387.924	    7
  17.2817	 387.943	    8
  17.2821	 387.963	    7
  17.2825	 387.982	    8
  17.2828	 388.002	    7
  17.2832	 388.021	    8
  17.2836	 388.041	    8
